Energy (MeV/u)	0 - [He-base] F.Hubert et al, AD&ND Tables 46(1990)1	1 - [H -base] J.F.Ziegler et al, Pergamon Press, NY (low energy)	2 - ATIMA 1.2  LS-theory (recommended for high energy)	3 - ATIMA 1.2  without LS-correction	4 - Range straggling - method [0] - LISE	5 - Range straggling - method [1] - Atima	6 - Lateral range - method [0] - LISE	7 - Lateral range - method [1] - Atima	8 - Lateral range - method [2] - PDG
1.000000	14.6802   	14.6562   	14.6936   	14.6936   	0.307688  	0.274219  	0.15506   	0.180417  	0.140188  
1.025000	15.2615   	15.2365   	15.2727   	15.2727   	0.32047   	0.284397  	0.160211  	0.186068  	0.144987  
1.050000	15.8427   	15.8168   	15.8517   	15.8517   	0.333251  	0.294574  	0.165362  	0.191719  	0.149787  
1.075000	16.424    	16.3972   	16.4308   	16.4308   	0.346032  	0.304751  	0.170512  	0.19737   	0.154586  
1.100000	17.0053   	16.9775   	17.0099   	17.0099   	0.358813  	0.314928  	0.175663  	0.203021  	0.159385  
1.125000	17.5866   	17.5579   	17.5889   	17.5889   	0.371594  	0.325106  	0.180814  	0.208671  	0.164185  
1.150000	18.1679   	18.1382   	18.168    	18.168    	0.384375  	0.335283  	0.185965  	0.214322  	0.168984  
1.175000	18.7492   	18.7185   	18.7471   	18.7471   	0.397156  	0.34546   	0.191115  	0.219973  	0.173783  
1.200000	19.3305   	19.2989   	19.3262   	19.3262   	0.409937  	0.355638  	0.196266  	0.225624  	0.178582  
1.225000	19.9118   	19.8792   	19.9052   	19.9052   	0.422718  	0.365815  	0.201417  	0.231275  	0.183382  
1.250000	20.4931   	20.4596   	20.4843   	20.4843   	0.435499  	0.375992  	0.206568  	0.236925  	0.188181  
1.275000	21.1537   	21.1191   	21.1419   	21.1419   	0.450193  	0.387849  	0.212312  	0.243174  	0.193581  
1.300000	21.8144   	21.7787   	21.7995   	21.7995   	0.464887  	0.399707  	0.218057  	0.249422  	0.198981  
1.325000	22.4751   	22.4383   	22.4571   	22.4571   	0.479581  	0.411564  	0.223801  	0.255671  	0.204381  
1.350000	23.1357   	23.0979   	23.1147   	23.1147   	0.494275  	0.423421  	0.229546  	0.261919  	0.209781  
1.375000	23.7964   	23.7575   	23.7722   	23.7722   	0.508969  	0.435279  	0.23529   	0.268167  	0.21518   
1.400000	24.4571   	24.4171   	24.4298   	24.4298   	0.523663  	0.447136  	0.241035  	0.274416  	0.22058   
1.425000	25.1177   	25.0766   	25.0874   	25.0874   	0.538357  	0.458993  	0.246779  	0.280664  	0.22598   
1.450000	25.7784   	25.7362   	25.745    	25.745    	0.553051  	0.47085   	0.252524  	0.286912  	0.23138   
1.475000	26.4391   	26.3958   	26.4026   	26.4026   	0.567744  	0.482708  	0.258268  	0.293161  	0.23678   
1.500000	27.0998   	27.0554   	27.0602   	27.0602   	0.582438  	0.494565  	0.264013  	0.299409  	0.24218   
1.525000	27.8371   	27.7916   	27.7939   	27.7939   	0.599     	0.507768  	0.270368  	0.306241  	0.248172  
1.550000	28.5745   	28.5278   	28.5276   	28.5276   	0.615561  	0.520971  	0.276723  	0.313072  	0.254164  
1.575000	29.3119   	29.264    	29.2613   	29.2613   	0.632122  	0.534175  	0.283078  	0.319904  	0.260155  
1.600000	30.0493   	30.0001   	29.995    	29.995    	0.648683  	0.547378  	0.289433  	0.326735  	0.266147  
1.625000	30.7867   	30.7363   	30.7287   	30.7287   	0.665244  	0.560581  	0.295788  	0.333567  	0.272139  
1.650000	31.5241   	31.4725   	31.4624   	31.4624   	0.681805  	0.573784  	0.302143  	0.340398  	0.278131  
1.675000	32.2615   	32.2087   	32.1961   	32.1961   	0.698367  	0.586987  	0.308498  	0.34723   	0.284123  
1.700000	32.9989   	32.9449   	32.9299   	32.9299   	0.714928  	0.600191  	0.314853  	0.354061  	0.290114  
1.725000	33.7363   	33.6811   	33.6636   	33.6636   	0.731489  	0.613394  	0.321208  	0.360893  	0.296106  
1.750000	34.4737   	34.4172   	34.3973   	34.3973   	0.74805   	0.626597  	0.327563  	0.367724  	0.302098  
1.775000	35.2856   	35.2278   	35.2051   	35.2051   	0.766439  	0.64098   	0.334527  	0.375122  	0.308671  
1.800000	36.0975   	36.0384   	36.0129   	36.0129   	0.784828  	0.655362  	0.341491  	0.38252   	0.315243  
1.825000	36.9094   	36.8489   	36.8207   	36.8207   	0.803217  	0.669745  	0.348455  	0.389918  	0.321816  
1.850000	37.7213   	37.6595   	37.6286   	37.6286   	0.821605  	0.684128  	0.355419  	0.397316  	0.328389  
1.875000	38.5332   	38.4701   	38.4364   	38.4364   	0.839994  	0.69851   	0.362383  	0.404713  	0.334962  
1.900000	39.3451   	39.2807   	39.2442   	39.2442   	0.858383  	0.712893  	0.369347  	0.412111  	0.341534  
1.925000	40.157    	40.0912   	40.052    	40.052    	0.876772  	0.727276  	0.376311  	0.419509  	0.348107  
1.950000	40.9689   	40.9018   	40.8599   	40.8599   	0.895161  	0.741658  	0.383275  	0.426907  	0.35468   
1.975000	41.7808   	41.7124   	41.6677   	41.6677   	0.91355   	0.756041  	0.390239  	0.434305  	0.361252  
2.000000	42.5927   	42.5229   	42.4755   	42.4755   	0.931938  	0.770424  	0.397203  	0.441703  	0.367825  
2.025000	43.4772   	43.406    	43.3558   	43.3558   	0.95212   	0.78589   	0.404764  	0.449652  	0.374969  
2.050000	44.3617   	44.2891   	44.236    	44.236    	0.972302  	0.801357  	0.412326  	0.457601  	0.382114  
2.075000	45.2462   	45.1722   	45.1162   	45.1162   	0.992484  	0.816824  	0.419887  	0.46555   	0.389258  
2.100000	46.1307   	46.0552   	45.9965   	45.9965   	1.01267   	0.832291  	0.427448  	0.473499  	0.396402  
2.125000	47.0153   	46.9383   	46.8767   	46.8767   	1.03285   	0.847758  	0.435009  	0.481448  	0.403546  
2.150000	47.8998   	47.8214   	47.7569   	47.7569   	1.05303   	0.863225  	0.442571  	0.489397  	0.410691  
2.175000	48.7843   	48.7044   	48.6372   	48.6372   	1.07321   	0.878692  	0.450132  	0.497346  	0.417835  
2.200000	49.6688   	49.5875   	49.5174   	49.5174   	1.09339   	0.894159  	0.457693  	0.505295  	0.424979  
2.225000	50.5533   	50.4706   	50.3976   	50.3976   	1.11358   	0.909626  	0.465254  	0.513244  	0.432123  
2.250000	51.4379   	51.3536   	51.2779   	51.2779   	1.13376   	0.925093  	0.472816  	0.521193  	0.439267  
2.275000	52.3933   	52.3076   	52.229    	52.229    	1.1557    	0.941583  	0.480963  	0.529679  	0.446972  
2.300000	53.3487   	53.2615   	53.1802   	53.1802   	1.17765   	0.958074  	0.48911   	0.538165  	0.454676  
2.325000	54.3041   	54.2154   	54.1313   	54.1313   	1.19959   	0.974564  	0.497257  	0.546651  	0.462381  
2.350000	55.2595   	55.1694   	55.0825   	55.0825   	1.22153   	0.991055  	0.505404  	0.555137  	0.470085  
2.375000	56.215    	56.1233   	56.0337   	56.0337   	1.24348   	1.00755   	0.513551  	0.563623  	0.47779   
2.400000	57.1704   	57.0772   	56.9848   	56.9848   	1.26542   	1.02404   	0.521698  	0.572109  	0.485494  
2.425000	58.1258   	58.0312   	57.936    	57.936    	1.28737   	1.04053   	0.529845  	0.580595  	0.493199  
2.450000	59.0812   	58.9851   	58.8871   	58.8871   	1.30931   	1.05702   	0.537992  	0.589081  	0.500903  
2.475000	60.0366   	59.939    	59.8383   	59.8383   	1.33126   	1.07351   	0.546139  	0.597566  	0.508607  
2.500000	60.992    	60.893    	60.7895   	60.7895   	1.3532    	1.09      	0.554286  	0.606052  	0.516312  
2.525000	62.0453   	61.9504   	61.8445   	61.8445   	1.37774   	1.10794   	0.563292  	0.615318  	0.524839  
2.550000	63.0986   	63.0078   	62.8995   	62.8995   	1.40227   	1.12589   	0.572297  	0.624584  	0.533367  
2.575000	64.1518   	64.0652   	63.9545   	63.9545   	1.4268    	1.14383   	0.581302  	0.633849  	0.541895  
2.600000	65.2051   	65.1227   	65.0095   	65.0095   	1.45134   	1.16178   	0.590308  	0.643115  	0.550422  
2.625000	66.2583   	66.1801   	66.0645   	66.0645   	1.47587   	1.17973   	0.599313  	0.652381  	0.55895   
2.650000	67.3116   	67.2375   	67.1195   	67.1195   	1.50041   	1.19767   	0.608319  	0.661647  	0.567477  
2.675000	68.3648   	68.2949   	68.1745   	68.1745   	1.52494   	1.21562   	0.617324  	0.670912  	0.576005  
2.700000	69.4181   	69.3524   	69.2295   	69.2295   	1.54948   	1.23356   	0.626329  	0.680178  	0.584532  
2.725000	70.4714   	70.4098   	70.2845   	70.2845   	1.57401   	1.25151   	0.635335  	0.689444  	0.59306   
2.750000	71.5246   	71.4672   	71.3395   	71.3395   	1.59855   	1.26945   	0.64434   	0.698709  	0.601587  
2.775000	72.5779   	72.5247   	72.3945   	72.3945   	1.62308   	1.2874    	0.653346  	0.707975  	0.610115  
2.800000	73.6311   	73.5821   	73.4495   	73.4495   	1.64762   	1.30534   	0.662351  	0.717241  	0.618642  
2.825000	74.6844   	74.6395   	74.5045   	74.5045   	1.67215   	1.32329   	0.671356  	0.726506  	0.62717   
2.850000	75.7376   	75.6969   	75.5595   	75.5595   	1.69669   	1.34123   	0.680362  	0.735772  	0.635697  
2.875000	76.7909   	76.7544   	76.6145   	76.6145   	1.72122   	1.35918   	0.689367  	0.745038  	0.644225  
2.900000	77.8442   	77.8118   	77.6695   	77.6695   	1.74576   	1.37712   	0.698372  	0.754303  	0.652752  
2.925000	78.8974   	78.8692   	78.7245   	78.7245   	1.77029   	1.39507   	0.707378  	0.763569  	0.66128   
2.950000	79.9507   	79.9266   	79.7795   	79.7795   	1.79483   	1.41302   	0.716383  	0.772835  	0.669808  
2.975000	81.0039   	80.9841   	80.8345   	80.8345   	1.81936   	1.43096   	0.725389  	0.782101  	0.678335  
3.000000	82.0572   	82.0415   	81.8895   	81.8895   	1.8439    	1.44891   	0.734394  	0.791366  	0.686863  
3.025000	83.2412   	83.2329   	83.0793   	83.0793   	1.87181   	1.4687    	0.744515  	0.801636  	0.696461  
3.050000	84.4252   	84.4244   	84.2692   	84.2692   	1.89972   	1.48849   	0.754636  	0.811906  	0.706059  
3.075000	85.6092   	85.6159   	85.459    	85.459    	1.92763   	1.50827   	0.764757  	0.822176  	0.715657  
3.100000	86.7931   	86.8073   	86.6489   	86.6489   	1.95555   	1.52806   	0.774879  	0.832445  	0.725256  
3.125000	87.9771   	87.9988   	87.8387   	87.8387   	1.98346   	1.54785   	0.785     	0.842715  	0.734854  
3.150000	89.1611   	89.1902   	89.0286   	89.0286   	2.01137   	1.56764   	0.795121  	0.852985  	0.744452  
3.175000	90.3451   	90.3817   	90.2184   	90.2184   	2.03928   	1.58743   	0.805242  	0.863255  	0.75405   
3.200000	91.5291   	91.5732   	91.4082   	91.4082   	2.0672    	1.60722   	0.815363  	0.873525  	0.763649  
3.225000	92.7131   	92.7646   	92.5981   	92.5981   	2.09511   	1.62701   	0.825484  	0.883794  	0.773247  
3.250000	93.8971   	93.9561   	93.7879   	93.7879   	2.12302   	1.6468    	0.835605  	0.894064  	0.782845  
3.275000	95.0811   	95.1475   	94.9778   	94.9778   	2.15094   	1.66659   	0.845726  	0.904334  	0.792443  
3.300000	96.2651   	96.339    	96.1676   	96.1676   	2.17885   	1.68638   	0.855848  	0.914604  	0.802042  
3.325000	97.449    	97.5304   	97.3575   	97.3575   	2.20676   	1.70617   	0.865969  	0.924874  	0.81164   
3.350000	98.633    	98.7219   	98.5473   	98.5473   	2.23467   	1.72596   	0.87609   	0.935143  	0.821238  
3.375000	99.817    	99.9134   	99.7372   	99.7372   	2.26259   	1.74575   	0.886211  	0.945413  	0.830836  
3.400000	101.001   	101.105   	100.927   	100.927   	2.2905    	1.76553   	0.896332  	0.955683  	0.840435  
3.425000	102.185   	102.296   	102.117   	102.117   	2.31841   	1.78532   	0.906453  	0.965953  	0.850033  
3.450000	103.369   	103.488   	103.307   	103.307   	2.34632   	1.80511   	0.916574  	0.976223  	0.859631  
3.475000	104.553   	104.679   	104.497   	104.497   	2.37424   	1.8249    	0.926695  	0.986493  	0.869229  
3.500000	105.737   	105.871   	105.686   	105.686   	2.40215   	1.84469   	0.936817  	0.996762  	0.878827  
3.525000	107.048   	107.192   	107.007   	107.007   	2.43336   	1.86624   	0.948023  	1.008     	0.889468  
3.550000	108.36    	108.514   	108.329   	108.329   	2.46457   	1.88779   	0.95923   	1.01924   	0.900109  
3.575000	109.671   	109.835   	109.65    	109.65    	2.49579   	1.90933   	0.970436  	1.03047   	0.91075   
3.600000	110.983   	111.157   	110.971   	110.971   	2.527     	1.93088   	0.981642  	1.04171   	0.921391  
3.625000	112.294   	112.478   	112.292   	112.292   	2.55821   	1.95243   	0.992849  	1.05294   	0.932031  
3.650000	113.606   	113.8     	113.613   	113.613   	2.58943   	1.97398   	1.00406   	1.06418   	0.942672  
3.675000	114.917   	115.121   	114.934   	114.934   	2.62064   	1.99552   	1.01526   	1.07542   	0.953313  
3.700000	116.229   	116.443   	116.255   	116.255   	2.65185   	2.01707   	1.02647   	1.08665   	0.963954  
3.725000	117.54    	117.764   	117.576   	117.576   	2.68306   	2.03862   	1.03767   	1.09789   	0.974595  
3.750000	118.851   	119.086   	118.897   	118.897   	2.71428   	2.06017   	1.04888   	1.10913   	0.985235  
3.775000	120.163   	120.407   	120.218   	120.218   	2.74549   	2.08171   	1.06009   	1.12036   	0.995876  
3.800000	121.474   	121.729   	121.539   	121.539   	2.7767    	2.10326   	1.07129   	1.1316    	1.00652   
3.825000	122.786   	123.05    	122.86    	122.86    	2.80791   	2.12481   	1.0825    	1.14284   	1.01716   
3.850000	124.097   	124.372   	124.181   	124.181   	2.83913   	2.14635   	1.09371   	1.15407   	1.0278    
3.875000	125.409   	125.693   	125.502   	125.502   	2.87034   	2.1679    	1.10491   	1.16531   	1.03844   
3.900000	126.72    	127.014   	126.823   	126.823   	2.90155   	2.18945   	1.11612   	1.17654   	1.04908   
3.925000	128.032   	128.336   	128.144   	128.144   	2.93276   	2.211     	1.12733   	1.18778   	1.05972   
3.950000	129.343   	129.657   	129.465   	129.465   	2.96398   	2.23254   	1.13853   	1.19902   	1.07036   
3.975000	130.655   	130.979   	130.786   	130.786   	2.99519   	2.25409   	1.14974   	1.21025   	1.081     
4.000000	131.966   	132.3     	132.107   	132.107   	3.0264    	2.27564   	1.16095   	1.22149   	1.09164   
4.025000	133.402   	133.749   	133.556   	133.556   	3.06085   	2.29888   	1.17321   	1.23366   	1.10328   
4.050000	134.838   	135.197   	135.005   	135.005   	3.0953    	2.32212   	1.18548   	1.24583   	1.11492   
4.075000	136.274   	136.645   	136.455   	136.455   	3.12974   	2.34536   	1.19774   	1.25801   	1.12656   
4.100000	137.711   	138.093   	137.904   	137.904   	3.16419   	2.3686    	1.21001   	1.27018   	1.1382    
4.125000	139.147   	139.541   	139.353   	139.353   	3.19864   	2.39184   	1.22228   	1.28235   	1.14984   
4.150000	140.583   	140.989   	140.802   	140.802   	3.23308   	2.41508   	1.23454   	1.29452   	1.16148   
4.175000	142.019   	142.438   	142.251   	142.251   	3.26753   	2.43832   	1.24681   	1.30669   	1.17312   
4.200000	143.455   	143.886   	143.7     	143.7     	3.30198   	2.46156   	1.25908   	1.31886   	1.18476   
4.225000	144.891   	145.334   	145.149   	145.149   	3.33642   	2.4848    	1.27134   	1.33104   	1.1964    
4.250000	146.328   	146.782   	146.599   	146.599   	3.37087   	2.50804   	1.28361   	1.34321   	1.20804   
4.275000	147.764   	148.23    	148.048   	148.048   	3.40532   	2.53128   	1.29587   	1.35538   	1.21968   
4.300000	149.2     	149.678   	149.497   	149.497   	3.43976   	2.55452   	1.30814   	1.36755   	1.23132   
4.325000	150.636   	151.126   	150.946   	150.946   	3.47421   	2.57776   	1.32041   	1.37972   	1.24296   
4.350000	152.072   	152.575   	152.395   	152.395   	3.50866   	2.601     	1.33267   	1.39189   	1.2546    
4.375000	153.508   	154.023   	153.844   	153.844   	3.5431    	2.62424   	1.34494   	1.40407   	1.26624   
4.400000	154.945   	155.471   	155.293   	155.293   	3.57755   	2.64748   	1.35721   	1.41624   	1.27788   
4.425000	156.381   	156.919   	156.743   	156.743   	3.612     	2.67072   	1.36947   	1.42841   	1.28952   
4.450000	157.817   	158.367   	158.192   	158.192   	3.64644   	2.69396   	1.38174   	1.44058   	1.30116   
4.475000	159.253   	159.815   	159.641   	159.641   	3.68089   	2.7172    	1.394     	1.45275   	1.3128    
4.500000	160.689   	161.264   	161.09    	161.09    	3.71534   	2.74044   	1.40627   	1.46492   	1.32444   
4.525000	162.248   	162.835   	162.665   	162.665   	3.75296   	2.76532   	1.41958   	1.478     	1.33706   
4.550000	163.806   	164.407   	164.239   	164.239   	3.79058   	2.79019   	1.43288   	1.49108   	1.34968   
4.575000	165.365   	165.979   	165.814   	165.814   	3.82821   	2.81507   	1.44618   	1.50416   	1.3623    
4.600000	166.923   	167.551   	167.388   	167.388   	3.86583   	2.83995   	1.45949   	1.51724   	1.37492   
4.625000	168.482   	169.123   	168.963   	168.963   	3.90345   	2.86483   	1.47279   	1.53032   	1.38754   
4.650000	170.04    	170.695   	170.538   	170.538   	3.94108   	2.88971   	1.48609   	1.5434    	1.40016   
4.675000	171.599   	172.267   	172.112   	172.112   	3.9787    	2.91459   	1.4994    	1.55648   	1.41278   
4.700000	173.157   	173.839   	173.687   	173.687   	4.01632   	2.93947   	1.5127    	1.56956   	1.4254    
4.725000	174.716   	175.411   	175.261   	175.261   	4.05395   	2.96435   	1.52601   	1.58264   	1.43801   
4.750000	176.274   	176.983   	176.836   	176.836   	4.09157   	2.98923   	1.53931   	1.59572   	1.45063   
4.775000	177.833   	178.555   	178.411   	178.411   	4.12919   	3.01411   	1.55261   	1.6088    	1.46325   
4.800000	179.391   	180.127   	179.985   	179.985   	4.16682   	3.03899   	1.56592   	1.62188   	1.47587   
4.825000	180.95    	181.699   	181.56    	181.56    	4.20444   	3.06386   	1.57922   	1.63496   	1.48849   
4.850000	182.508   	183.271   	183.134   	183.134   	4.24206   	3.08874   	1.59253   	1.64804   	1.50111   
4.875000	184.066   	184.842   	184.709   	184.709   	4.27969   	3.11362   	1.60583   	1.66112   	1.51373   
4.900000	185.625   	186.414   	186.284   	186.284   	4.31731   	3.1385    	1.61913   	1.6742    	1.52635   
4.925000	187.183   	187.986   	187.858   	187.858   	4.35493   	3.16338   	1.63244   	1.68728   	1.53897   
4.950000	188.742   	189.558   	189.433   	189.433   	4.39256   	3.18826   	1.64574   	1.70036   	1.55159   
4.975000	190.3     	191.13    	191.007   	191.007   	4.43018   	3.21314   	1.65904   	1.71344   	1.56421   
5.000000	191.859   	192.702   	192.582   	192.582   	4.4678    	3.23802   	1.67235   	1.72652   	1.57683   
5.025000	193.538   	194.395   	194.28    	194.28    	4.50855   	3.26449   	1.68667   	1.74048   	1.59041   
5.050000	195.216   	196.088   	195.977   	195.977   	4.5493    	3.29097   	1.70099   	1.75444   	1.604     
5.075000	196.895   	197.782   	197.675   	197.675   	4.59005   	3.31744   	1.71531   	1.76841   	1.61758   
5.100000	198.574   	199.475   	199.373   	199.373   	4.6308    	3.34391   	1.72964   	1.78237   	1.63117   
5.125000	200.252   	201.168   	201.071   	201.071   	4.67155   	3.37039   	1.74396   	1.79634   	1.64475   
5.150000	201.931   	202.861   	202.768   	202.768   	4.7123    	3.39686   	1.75828   	1.8103    	1.65834   
5.175000	203.61    	204.554   	204.466   	204.466   	4.75305   	3.42333   	1.7726    	1.82427   	1.67192   
5.200000	205.289   	206.247   	206.164   	206.164   	4.7938    	3.44981   	1.78693   	1.83823   	1.68551   
5.225000	206.967   	207.941   	207.861   	207.861   	4.83455   	3.47628   	1.80125   	1.85219   	1.69909   
5.250000	208.646   	209.634   	209.559   	209.559   	4.8753    	3.50275   	1.81557   	1.86616   	1.71268   
5.275000	210.325   	211.327   	211.257   	211.257   	4.91605   	3.52923   	1.82989   	1.88012   	1.72626   
5.300000	212.003   	213.02    	212.955   	212.955   	4.9568    	3.5557    	1.84421   	1.89409   	1.73984   
5.325000	213.682   	214.713   	214.652   	214.652   	4.99755   	3.58217   	1.85854   	1.90805   	1.75343   
5.350000	215.361   	216.407   	216.35    	216.35    	5.0383    	3.60865   	1.87286   	1.92202   	1.76701   
5.375000	217.04    	218.1     	218.048   	218.048   	5.07905   	3.63512   	1.88718   	1.93598   	1.7806    
5.400000	218.718   	219.793   	219.745   	219.745   	5.1198    	3.6616    	1.9015    	1.94994   	1.79418   
5.425000	220.397   	221.486   	221.443   	221.443   	5.16055   	3.68807   	1.91582   	1.96391   	1.80777   
5.450000	222.076   	223.179   	223.141   	223.141   	5.2013    	3.71454   	1.93015   	1.97787   	1.82135   
5.475000	223.754   	224.872   	224.839   	224.839   	5.24205   	3.74102   	1.94447   	1.99184   	1.83494   
5.500000	225.433   	226.566   	226.536   	226.536   	5.2828    	3.76749   	1.95879   	2.0058    	1.84852   
