Energy (MeV/u)	0 - [He-base] F.Hubert et al, AD&ND Tables 46(1990)1	1 - [H -base] J.F.Ziegler et al, Pergamon Press, NY (low energy)	2 - ATIMA 1.2  LS-theory (recommended for high energy)	3 - ATIMA 1.2  without LS-correction	4 - Range straggling - method [0] - LISE	5 - Range straggling - method [1] - Atima	6 - Lateral range - method [0] - LISE	7 - Lateral range - method [1] - Atima	8 - Lateral range - method [2] - PDG
10.000000	715.495   	708.925   	703.845   	703.845   	16.6195   	10.7365   	6.08077   	5.92446   	5.79222   
10.250000	747.77    	740.488   	735.432   	735.432   	17.3804   	11.1786   	6.3475    	6.17043   	6.04784   
10.500000	780.045   	772.051   	767.019   	767.018   	18.1412   	11.6207   	6.61424   	6.41639   	6.30347   
10.750000	812.319   	803.614   	798.606   	798.605   	18.902    	12.0629   	6.88097   	6.66236   	6.55909   
11.000000	844.594   	835.177   	830.193   	830.192   	19.6628   	12.505    	7.14771   	6.90832   	6.81472   
11.250000	879.237   	869.002   	864.104   	864.103   	20.4838   	12.9757   	7.43382   	7.17004   	7.08908   
11.500000	913.881   	902.827   	898.015   	898.014   	21.3048   	13.4464   	7.71993   	7.43176   	7.36344   
11.750000	948.524   	936.652   	931.927   	931.925   	22.1257   	13.9172   	8.00604   	7.69347   	7.6378    
12.000000	983.168   	970.477   	965.838   	965.836   	22.9467   	14.3879   	8.29216   	7.95519   	7.91216   
12.250000	1020.14   	1006.54   	1002.05   	1002.04   	23.8273   	14.8867   	8.59754   	8.23266   	8.20516   
12.500000	1057.12   	1042.6    	1038.26   	1038.25   	24.7078   	15.3856   	8.90292   	8.51013   	8.49816   
12.750000	1094.09   	1078.67   	1074.46   	1074.46   	25.5883   	15.8845   	9.2083    	8.7876    	8.79116   
13.000000	1131.07   	1114.73   	1110.67   	1110.67   	26.4689   	16.3833   	9.51368   	9.06507   	9.08415   
13.250000	1170.34   	1153.01   	1149.15   	1149.15   	27.4085   	16.9097   	9.83822   	9.35812   	9.39568   
13.500000	1209.61   	1191.29   	1187.64   	1187.63   	28.3481   	17.4361   	10.1628   	9.65118   	9.70722   
13.750000	1248.88   	1229.57   	1226.12   	1226.11   	29.2878   	17.9626   	10.4873   	9.94423   	10.0187   
14.000000	1288.15   	1267.84   	1264.6    	1264.59   	30.2274   	18.489    	10.8118   	10.2373   	10.3303   
14.250000	1329.69   	1308.32   	1305.33   	1305.33   	31.2259   	19.0429   	11.1554   	10.5458   	10.6603   
14.500000	1371.23   	1348.79   	1346.07   	1346.06   	32.2243   	19.5969   	11.499    	10.8543   	10.9902   
14.750000	1412.76   	1389.26   	1386.8    	1386.8    	33.2227   	20.1508   	11.8426   	11.1628   	11.3202   
15.000000	1454.3    	1429.73   	1427.54   	1427.53   	34.2212   	20.7048   	12.1862   	11.4713   	11.6502   
15.250000	1498.07   	1472.38   	1470.51   	1470.5    	35.2782   	21.2861   	12.5488   	11.7951   	11.9986   
15.500000	1541.84   	1515.02   	1513.48   	1513.47   	36.3353   	21.8675   	12.9114   	12.1189   	12.347    
15.750000	1585.61   	1557.66   	1556.45   	1556.44   	37.3923   	22.4488   	13.2739   	12.4427   	12.6953   
16.000000	1629.38   	1600.31   	1599.42   	1599.41   	38.4493   	23.0302   	13.6365   	12.7666   	13.0437   
16.250000	1675.36   	1645.1    	1644.6    	1644.6    	39.5647   	23.6385   	14.018    	13.1056   	13.4104   
16.500000	1721.34   	1689.9    	1689.79   	1689.79   	40.6801   	24.2468   	14.3995   	13.4446   	13.7771   
16.750000	1767.32   	1734.69   	1734.98   	1734.98   	41.7954   	24.855    	14.7809   	13.7836   	14.1438   
17.000000	1813.3    	1779.49   	1780.17   	1780.17   	42.9108   	25.4633   	15.1624   	14.1226   	14.5105   
17.250000	1861.46   	1826.41   	1827.56   	1827.56   	44.0843   	26.0983   	15.5627   	14.4768   	14.8954   
17.500000	1909.61   	1873.34   	1874.95   	1874.96   	45.2579   	26.7333   	15.9631   	14.8309   	15.2804   
17.750000	1957.77   	1920.27   	1922.34   	1922.35   	46.4314   	27.3683   	16.3634   	15.185    	15.6654   
18.000000	2005.93   	1967.19   	1969.73   	1969.75   	47.605    	28.0032   	16.7637   	15.5391   	16.0503   
18.250000	2056.25   	2016.23   	2019.32   	2019.33   	48.8368   	28.6649   	17.1828   	15.9083   	16.4535   
18.500000	2106.56   	2065.27   	2068.9    	2068.92   	50.0685   	29.3266   	17.6019   	16.2774   	16.8567   
18.750000	2156.87   	2114.31   	2118.48   	2118.51   	51.3003   	29.9882   	18.0211   	16.6466   	17.2599   
19.000000	2207.19   	2163.35   	2168.07   	2168.1    	52.532    	30.6499   	18.4402   	17.0157   	17.6632   
19.250000	2259.63   	2214.48   	2219.83   	2219.87   	53.822    	31.3382   	18.8781   	17.3998   	18.0846   
19.500000	2312.08   	2265.62   	2271.6    	2271.64   	55.1119   	32.0265   	19.316    	17.784    	18.506    
19.750000	2364.53   	2316.75   	2323.36   	2323.41   	56.4019   	32.7148   	19.7539   	18.1681   	18.9275   
20.000000	2416.97   	2367.88   	2375.13   	2375.18   	57.6918   	33.4031   	20.1918   	18.5522   	19.3489   
20.250000	2471.53   	2421.09   	2429.07   	2429.12   	59.0399   	34.1179   	20.6485   	18.9512   	19.7886   
20.500000	2526.08   	2474.3    	2483.01   	2483.06   	60.388    	34.8327   	21.1051   	19.3502   	20.2283   
20.750000	2580.64   	2527.51   	2536.94   	2537.01   	61.7361   	35.5476   	21.5618   	19.7492   	20.6679   
21.000000	2635.19   	2580.72   	2590.88   	2590.95   	63.0841   	36.2624   	22.0184   	20.1482   	21.1076   
21.250000	2691.83   	2635.99   	2646.98   	2647.06   	64.4904   	37.0037   	22.4938   	20.5621   	21.5654   
21.500000	2748.47   	2691.26   	2703.08   	2703.16   	65.8966   	37.7451   	22.9692   	20.976    	22.0233   
21.750000	2805.12   	2746.53   	2759.18   	2759.27   	67.3028   	38.4864   	23.4446   	21.3898   	22.4812   
22.000000	2861.76   	2801.8    	2815.28   	2815.38   	68.709    	39.2278   	23.92     	21.8037   	22.9391   
22.250000	2920.47   	2859.11   	2873.54   	2873.64   	70.1734   	39.9956   	24.4141   	22.2324   	23.4151   
22.500000	2979.18   	2916.42   	2931.8    	2931.9    	71.6378   	40.7635   	24.9082   	22.661    	23.8912   
22.750000	3037.89   	2973.73   	2990.05   	2990.16   	73.1022   	41.5313   	25.4023   	23.0897   	24.3673   
23.000000	3096.59   	3031.04   	3048.31   	3048.42   	74.5665   	42.2992   	25.8965   	23.5184   	24.8434   
23.250000	3157.35   	3090.38   	3108.71   	3108.83   	76.089    	43.0933   	26.4093   	23.9618   	25.3377   
23.500000	3218.11   	3149.72   	3169.11   	3169.24   	77.6114   	43.8874   	26.9221   	24.4052   	25.8319   
23.750000	3278.86   	3209.06   	3229.51   	3229.65   	79.1339   	44.6815   	27.4349   	24.8486   	26.3262   
24.000000	3339.62   	3268.39   	3289.91   	3290.06   	80.6563   	45.4756   	27.9477   	25.2921   	26.8205   
24.250000	3402.4    	3329.74   	3352.45   	3352.61   	82.2366   	46.2956   	28.4792   	25.7502   	27.333    
24.500000	3465.19   	3391.09   	3414.99   	3415.16   	83.817    	47.1156   	29.0106   	26.2083   	27.8454   
24.750000	3527.97   	3452.44   	3477.53   	3477.71   	85.3973   	47.9356   	29.5421   	26.6664   	28.3579   
25.000000	3590.75   	3513.79   	3540.07   	3540.26   	86.9776   	48.7556   	30.0736   	27.1245   	28.8703   
25.250000	3656.54   	3578.12   	3605.8    	3606.01   	88.6449   	49.6145   	30.633    	27.6046   	29.41     
25.500000	3722.33   	3642.45   	3671.53   	3671.75   	90.3121   	50.4734   	31.1924   	28.0846   	29.9497   
25.750000	3788.12   	3706.79   	3737.26   	3737.5    	91.9793   	51.3322   	31.7518   	28.5647   	30.4895   
26.000000	3853.91   	3771.12   	3802.99   	3803.25   	93.6465   	52.1911   	32.3113   	29.0448   	31.0292   
26.250000	3919.7    	3835.46   	3868.72   	3869      	95.3137   	53.05     	32.8707   	29.5248   	31.5689   
26.500000	3985.49   	3899.79   	3934.44   	3934.75   	96.9809   	53.9089   	33.4301   	30.0049   	32.1086   
26.750000	4051.28   	3964.12   	4000.17   	4000.49   	98.6481   	54.7678   	33.9896   	30.485    	32.6483   
27.000000	4117.07   	4028.46   	4065.9    	4066.24   	100.315   	55.6267   	34.549    	30.965    	33.188    
27.250000	4186.8    	4096.72   	4135.87   	4136.23   	102.099   	56.5382   	35.1458   	31.4743   	33.7642   
27.500000	4256.54   	4164.99   	4205.84   	4206.23   	103.882   	57.4496   	35.7425   	31.9836   	34.3403   
27.750000	4326.28   	4233.25   	4275.81   	4276.22   	105.666   	58.3611   	36.3393   	32.4929   	34.9165   
28.000000	4396.02   	4301.52   	4345.78   	4346.21   	107.449   	59.2725   	36.9361   	33.0022   	35.4926   
28.250000	4465.76   	4369.78   	4415.75   	4416.2    	109.233   	60.184    	37.5328   	33.5115   	36.0688   
28.500000	4535.5    	4438.05   	4485.72   	4486.19   	111.016   	61.0955   	38.1296   	34.0208   	36.6449   
28.750000	4605.24   	4506.32   	4555.69   	4556.19   	112.8     	62.0069   	38.7264   	34.5301   	37.2211   
29.000000	4674.97   	4574.58   	4625.66   	4626.18   	114.583   	62.9184   	39.3231   	35.0394   	37.7972   
29.250000	4748.6    	4646.72   	4699.81   	4700.35   	116.48    	63.8808   	39.9567   	35.5774   	38.4094   
29.500000	4822.22   	4718.87   	4773.96   	4774.52   	118.377   	64.8431   	40.5903   	36.1154   	39.0215   
29.750000	4895.84   	4791.01   	4848.11   	4848.69   	120.274   	65.8055   	41.2238   	36.6535   	39.6336   
30.000000	4969.47   	4863.15   	4922.25   	4922.87   	122.17    	66.7679   	41.8574   	37.1915   	40.2458   
30.250000	5043.09   	4935.29   	4996.4    	4997.04   	124.067   	67.7302   	42.491    	37.7295   	40.8579   
30.500000	5116.71   	5007.43   	5070.55   	5071.21   	125.964   	68.6926   	43.1245   	38.2675   	41.47     
30.750000	5190.33   	5079.57   	5144.7    	5145.38   	127.86    	69.655    	43.7581   	38.8055   	42.0821   
31.000000	5263.96   	5151.72   	5218.84   	5219.55   	129.757   	70.6173   	44.3917   	39.3435   	42.6943   
31.250000	5341.4    	5227.68   	5296.89   	5297.62   	131.748   	71.6204   	45.0587   	39.9074   	43.3392   
31.500000	5418.85   	5303.65   	5374.93   	5375.69   	133.74    	72.6235   	45.7256   	40.4714   	43.9841   
31.750000	5496.3    	5379.61   	5452.97   	5453.76   	135.731   	73.6265   	46.3926   	41.0353   	44.629    
32.000000	5573.74   	5455.58   	5531.02   	5531.83   	137.722   	74.6296   	47.0596   	41.5993   	45.2739   
32.250000	5651.19   	5531.54   	5609.06   	5609.9    	139.713   	75.6327   	47.7266   	42.1632   	45.9187   
32.500000	5728.63   	5607.5    	5687.1    	5687.97   	141.705   	76.6357   	48.3936   	42.7271   	46.5636   
32.750000	5806.08   	5683.47   	5765.14   	5766.04   	143.696   	77.6388   	49.0606   	43.2911   	47.2085   
33.000000	5883.52   	5759.43   	5843.19   	5844.11   	145.687   	78.6419   	49.7275   	43.855    	47.8534   
33.250000	5964.74   	5839.17   	5925.04   	5925.99   	147.77    	79.6843   	50.4267   	44.4438   	48.53     
33.500000	6045.95   	5918.91   	6006.88   	6007.86   	149.852   	80.7267   	51.1259   	45.0326   	49.2065   
33.750000	6127.16   	5998.64   	6088.73   	6089.73   	151.935   	81.7691   	51.825    	45.6214   	49.883    
34.000000	6208.37   	6078.38   	6170.58   	6171.61   	154.018   	82.8115   	52.5242   	46.2102   	50.5595   
34.250000	6289.58   	6158.12   	6252.43   	6253.48   	156.1     	83.8539   	53.2234   	46.799    	51.2361   
34.500000	6370.79   	6237.85   	6334.27   	6335.36   	158.183   	84.8963   	53.9226   	47.3878   	51.9126   
34.750000	6452      	6317.59   	6416.12   	6417.23   	160.266   	85.9387   	54.6217   	47.9766   	52.5891   
35.000000	6533.21   	6397.33   	6497.97   	6499.1    	162.348   	86.9811   	55.3209   	48.5655   	53.2657   
35.250000	6619.05   	6481.71   	6584.49   	6585.66   	164.544   	88.0724   	56.0591   	49.1843   	53.9807   
35.500000	6704.89   	6566.09   	6671.01   	6672.21   	166.74    	89.1637   	56.7974   	49.8032   	54.6957   
35.750000	6790.73   	6650.47   	6757.54   	6758.77   	168.935   	90.255    	57.5356   	50.422    	55.4107   
36.000000	6876.57   	6734.85   	6844.06   	6845.32   	171.131   	91.3464   	58.2738   	51.0409   	56.1257   
36.250000	6962.41   	6819.23   	6930.58   	6931.88   	173.327   	92.4377   	59.0121   	51.6597   	56.8407   
36.500000	7048.25   	6903.61   	7017.1    	7018.43   	175.522   	93.529    	59.7503   	52.2786   	57.5557   
36.750000	7134.08   	6987.99   	7103.63   	7104.99   	177.718   	94.6203   	60.4885   	52.8974   	58.2707   
37.000000	7219.92   	7072.37   	7190.15   	7191.54   	179.914   	95.7116   	61.2268   	53.5163   	58.9858   
37.250000	7305.76   	7156.75   	7276.67   	7278.1    	182.109   	96.803    	61.965    	54.1351   	59.7008   
37.500000	7391.6    	7241.13   	7363.2    	7364.65   	184.305   	97.8943   	62.7032   	54.754    	60.4158   
37.750000	7477.44   	7325.51   	7449.72   	7451.2    	186.501   	98.9856   	63.4415   	55.3728   	61.1308   
38.000000	7563.28   	7409.89   	7536.24   	7537.76   	188.696   	100.077   	64.1797   	55.9917   	61.8458   
38.250000	7654.56   	7499.75   	7628.27   	7629.83   	191.025   	101.225   	64.9635   	56.6454   	62.6058   
38.500000	7745.85   	7589.61   	7720.3    	7721.91   	193.355   	102.373   	65.7473   	57.2992   	63.3658   
38.750000	7837.14   	7679.47   	7812.33   	7813.98   	195.684   	103.521   	66.531    	57.9529   	64.1258   
39.000000	7928.43   	7769.33   	7904.36   	7906.06   	198.013   	104.67    	67.3148   	58.6066   	64.8858   
39.250000	8019.72   	7859.19   	7996.39   	7998.13   	200.342   	105.818   	68.0986   	59.2604   	65.6458   
39.500000	8111.01   	7949.05   	8088.42   	8090.21   	202.671   	106.966   	68.8824   	59.9141   	66.4058   
39.750000	8202.3    	8038.91   	8180.45   	8182.28   	205.001   	108.114   	69.6662   	60.5679   	67.1658   
40.000000	8293.59   	8128.77   	8272.48   	8274.36   	207.33    	109.262   	70.4499   	61.2216   	67.9258   
40.250000	8384.87   	8218.63   	8364.51   	8366.43   	209.659   	110.411   	71.2337   	61.8753   	68.6858   
40.500000	8476.16   	8308.49   	8456.54   	8458.51   	211.988   	111.559   	72.0175   	62.5291   	69.4458   
40.750000	8567.45   	8398.35   	8548.56   	8550.58   	214.317   	112.707   	72.8013   	63.1828   	70.2058   
41.000000	8658.74   	8488.21   	8640.59   	8642.66   	216.647   	113.855   	73.585    	63.8366   	70.9658   
41.250000	8755.37   	8583.45   	8738.04   	8740.15   	219.108   	115.06    	74.4133   	64.5243   	71.7699   
41.500000	8852      	8678.69   	8835.49   	8837.64   	221.57    	116.264   	75.2416   	65.212    	72.574    
41.750000	8948.63   	8773.93   	8932.93   	8935.14   	224.032   	117.469   	76.0699   	65.8997   	73.3781   
42.000000	9045.27   	8869.17   	9030.38   	9032.63   	226.493   	118.674   	76.8982   	66.5874   	74.1822   
42.250000	9141.9    	8964.41   	9127.82   	9130.12   	228.955   	119.879   	77.7265   	67.2751   	74.9863   
42.500000	9238.53   	9059.65   	9225.27   	9227.62   	231.416   	121.083   	78.5548   	67.9628   	75.7904   
42.750000	9335.16   	9154.89   	9322.72   	9325.11   	233.878   	122.288   	79.383    	68.6506   	76.5945   
43.000000	9431.79   	9250.13   	9420.16   	9422.6    	236.34    	123.493   	80.2113   	69.3383   	77.3986   
43.250000	9528.42   	9345.37   	9517.61   	9520.1    	238.801   	124.697   	81.0396   	70.026    	78.2027   
43.500000	9625.05   	9440.61   	9615.05   	9617.59   	241.263   	125.902   	81.8679   	70.7137   	79.0068   
43.750000	9721.69   	9535.85   	9712.5    	9715.08   	243.724   	127.107   	82.6962   	71.4014   	79.8109   
44.000000	9818.32   	9631.09   	9809.95   	9812.57   	246.186   	128.311   	83.5245   	72.0891   	80.615    
44.250000	9920.19   	9731.62   	9912.71   	9915.39   	248.778   	129.571   	84.3962   	72.8099   	81.4623   
44.500000	10022.1   	9832.14   	10015.5   	10018.2   	251.369   	130.832   	85.268    	73.5308   	82.3096   
44.750000	10123.9   	9932.67   	10118.2   	10121     	253.961   	132.092   	86.1397   	74.2516   	83.1569   
45.000000	10225.8   	10033.2   	10221     	10223.8   	256.552   	133.352   	87.0115   	74.9724   	84.0042   
45.250000	10327.7   	10133.7   	10323.8   	10326.6   	259.144   	134.612   	87.8833   	75.6932   	84.8515   
45.500000	10429.6   	10234.2   	10426.5   	10429.5   	261.736   	135.872   	88.755    	76.414    	85.6988   
45.750000	10531.4   	10334.8   	10529.3   	10532.3   	264.327   	137.132   	89.6268   	77.1348   	86.5461   
46.000000	10633.3   	10435.3   	10632.1   	10635.1   	266.919   	138.392   	90.4986   	77.8557   	87.3934   
46.250000	10735.2   	10535.8   	10734.8   	10737.9   	269.511   	139.653   	91.3703   	78.5765   	88.2407   
46.500000	10837     	10636.4   	10837.6   	10840.7   	272.102   	140.913   	92.2421   	79.2973   	89.0881   
46.750000	10938.9   	10736.9   	10940.4   	10943.5   	274.694   	142.173   	93.1138   	80.0181   	89.9354   
47.000000	11040.8   	10837.4   	11043.1   	11046.4   	277.285   	143.433   	93.9856   	80.7389   	90.7827   
47.250000	11147.8   	10943.1   	11151.1   	11154.4   	280.005   	144.748   	94.8999   	81.4921   	91.6724   
47.500000	11254.8   	11048.8   	11259.1   	11262.4   	282.724   	146.062   	95.8142   	82.2452   	92.5621   
47.750000	11361.8   	11154.6   	11367.1   	11370.5   	285.443   	147.377   	96.7285   	82.9984   	93.4518   
48.000000	11468.9   	11260.3   	11475.1   	11478.5   	288.162   	148.692   	97.6429   	83.7515   	94.3415   
48.250000	11575.9   	11366     	11583.1   	11586.6   	290.882   	150.006   	98.5572   	84.5047   	95.2313   
48.500000	11682.9   	11471.7   	11691.1   	11694.6   	293.601   	151.321   	99.4715   	85.2578   	96.121    
48.750000	11789.9   	11577.5   	11799.1   	11802.7   	296.32    	152.636   	100.386   	86.011    	97.0107   
49.000000	11896.9   	11683.2   	11907.1   	11910.7   	299.039   	153.95    	101.3     	86.7641   	97.9004   
49.250000	12004     	11788.9   	12015.1   	12018.8   	301.759   	155.265   	102.214   	87.5173   	98.7901   
49.500000	12111     	11894.6   	12123.1   	12126.8   	304.478   	156.58    	103.129   	88.2704   	99.6799   
49.750000	12218     	12000.3   	12231.1   	12234.9   	307.197   	157.894   	104.043   	89.0236   	100.57    
50.000000	12325     	12106.1   	12339.1   	12342.9   	309.916   	159.209   	104.957   	89.7767   	101.459   
50.250000	12438.8   	12218.6   	12453.9   	12457.8   	312.802   	160.595   	105.927   	90.5718   	102.404   
50.500000	12552.5   	12331.1   	12568.7   	12572.7   	315.687   	161.98    	106.897   	91.3669   	103.349   
50.750000	12666.2   	12443.6   	12683.6   	12687.5   	318.573   	163.366   	107.866   	92.1621   	104.295   
51.000000	12780     	12556.1   	12798.4   	12802.4   	321.458   	164.752   	108.836   	92.9572   	105.24    
51.250000	12893.7   	12668.6   	12913.2   	12917.3   	324.344   	166.137   	109.806   	93.7523   	106.185   
51.500000	13007.4   	12781.1   	13028     	13032.2   	327.229   	167.523   	110.775   	94.5474   	107.13    
51.750000	13121.2   	12893.6   	13142.9   	13147.1   	330.115   	168.909   	111.745   	95.3425   	108.075   
52.000000	13234.9   	13006.1   	13257.7   	13261.9   	333       	170.294   	112.715   	96.1377   	109.02    
52.250000	13348.7   	13118.6   	13372.5   	13376.8   	335.886   	171.68    	113.684   	96.9328   	109.965   
52.500000	13462.4   	13231.2   	13487.3   	13491.7   	338.771   	173.065   	114.654   	97.7279   	110.91    
52.750000	13576.1   	13343.7   	13602.2   	13606.6   	341.657   	174.451   	115.623   	98.523    	111.855   
53.000000	13689.9   	13456.2   	13717     	13721.5   	344.542   	175.837   	116.593   	99.3181   	112.8     
53.250000	13803.6   	13568.7   	13831.8   	13836.4   	347.428   	177.222   	117.563   	100.113   	113.745   
53.500000	13917.3   	13681.2   	13946.6   	13951.2   	350.313   	178.608   	118.532   	100.908   	114.69    
53.750000	14031.1   	13793.7   	14061.5   	14066.1   	353.198   	179.994   	119.502   	101.703   	115.636   
54.000000	14144.8   	13906.2   	14176.3   	14181     	356.084   	181.379   	120.472   	102.499   	116.581   
54.250000	14258.5   	14018.7   	14291.1   	14295.9   	358.969   	182.765   	121.441   	103.294   	117.526   
54.500000	14372.3   	14131.2   	14406     	14410.8   	361.855   	184.151   	122.411   	104.089   	118.471   
